 angle:	pba:
   1.500000    	           0	  0.0000000E+00
   4.500000    	           0	  0.0000000E+00
   7.500000    	           0	  0.0000000E+00
   10.50000    	           0	  0.0000000E+00
   13.50000    	           0	  0.0000000E+00
   16.50000    	           0	  0.0000000E+00
   19.50000    	           0	  0.0000000E+00
   22.50000    	           0	  0.0000000E+00
   25.50000    	           0	  0.0000000E+00
   28.50000    	           0	  0.0000000E+00
   31.50000    	           0	  0.0000000E+00
   34.50000    	           0	  0.0000000E+00
   37.50000    	           0	  0.0000000E+00
   40.50000    	           0	  0.0000000E+00
   43.50000    	           0	  0.0000000E+00
   46.50000    	           0	  0.0000000E+00
   49.50000    	           0	  0.0000000E+00
   52.50000    	           1	  8.1254570E-05
   55.50000    	           2	  1.6250914E-04
   58.50000    	           2	  1.6250914E-04
   61.50000    	          10	  8.1254571E-04
   64.50000    	          33	  2.6814009E-03
   67.50000    	          67	  5.4440564E-03
   70.50000    	         112	  9.1005117E-03
   73.50000    	         179	  1.4544568E-02
   76.50000    	         296	  2.4051353E-02
   79.50000    	         357	  2.9007882E-02
   82.50000    	         430	  3.4939464E-02
   85.50000    	         530	  4.3064922E-02
   88.50000    	         579	  4.7046397E-02
   91.50000    	         632	  5.1352888E-02
   94.50000    	         645	  5.2409198E-02
   97.50000    	         632	  5.1352888E-02
   100.5000    	         607	  4.9321525E-02
   103.5000    	         577	  4.6883889E-02
   106.5000    	         563	  4.5746323E-02
   109.5000    	         543	  4.4121232E-02
   112.5000    	         479	  3.8920939E-02
   115.5000    	         518	  4.2089868E-02
   118.5000    	         428	  3.4776956E-02
   121.5000    	         446	  3.6239538E-02
   124.5000    	         429	  3.4858212E-02
   127.5000    	         404	  3.2826848E-02
   130.5000    	         396	  3.2176811E-02
   133.5000    	         341	  2.7707808E-02
   136.5000    	         283	  2.2995044E-02
   139.5000    	         278	  2.2588771E-02
   142.5000    	         270	  2.1938734E-02
   145.5000    	         222	  1.8038515E-02
   148.5000    	         204	  1.6575933E-02
   151.5000    	         140	  1.1375640E-02
   154.5000    	         157	  1.2756968E-02
   157.5000    	         129	  1.0481840E-02
   160.5000    	          92	  7.4754204E-03
   163.5000    	          80	  6.5003657E-03
   166.5000    	          83	  6.7441296E-03
   169.5000    	          57	  4.6315105E-03
   172.5000    	          41	  3.3314375E-03
   175.5000    	          24	  1.9501097E-03
   178.5000    	           9	  7.3129113E-04
   181.5000    	           0	  0.0000000E+00
   184.5000    	           0	  0.0000000E+00
   187.5000    	           0	  0.0000000E+00
   190.5000    	           0	  0.0000000E+00
   193.5000    	           0	  0.0000000E+00
   196.5000    	           0	  0.0000000E+00
   199.5000    	           0	  0.0000000E+00
   202.5000    	           0	  0.0000000E+00
   205.5000    	           0	  0.0000000E+00
   208.5000    	           0	  0.0000000E+00
   211.5000    	           0	  0.0000000E+00
   214.5000    	           0	  0.0000000E+00
   217.5000    	           0	  0.0000000E+00
   220.5000    	           0	  0.0000000E+00
   223.5000    	           0	  0.0000000E+00
   226.5000    	           0	  0.0000000E+00
   229.5000    	           0	  0.0000000E+00
   232.5000    	           0	  0.0000000E+00
   235.5000    	           0	  0.0000000E+00
   238.5000    	           0	  0.0000000E+00
   241.5000    	           0	  0.0000000E+00
   244.5000    	           0	  0.0000000E+00
   247.5000    	           0	  0.0000000E+00
   250.5000    	           0	  0.0000000E+00
   253.5000    	           0	  0.0000000E+00
   256.5000    	           0	  0.0000000E+00
   259.5000    	           0	  0.0000000E+00
   262.5000    	           0	  0.0000000E+00
   265.5000    	           0	  0.0000000E+00
   268.5000    	           0	  0.0000000E+00
   271.5000    	           0	  0.0000000E+00
   274.5000    	           0	  0.0000000E+00
   277.5000    	           0	  0.0000000E+00
   280.5000    	           0	  0.0000000E+00
   283.5000    	           0	  0.0000000E+00
   286.5000    	           0	  0.0000000E+00
   289.5000    	           0	  0.0000000E+00
   292.5000    	           0	  0.0000000E+00
   295.5000    	           0	  0.0000000E+00
   298.5000    	           0	  0.0000000E+00
   301.5000    	           0	  0.0000000E+00
   304.5000    	           0	  0.0000000E+00
   307.5000    	           0	  0.0000000E+00
   310.5000    	           0	  0.0000000E+00
   313.5000    	           0	  0.0000000E+00
   316.5000    	           0	  0.0000000E+00
   319.5000    	           0	  0.0000000E+00
   322.5000    	           0	  0.0000000E+00
   325.5000    	           0	  0.0000000E+00
   328.5000    	           0	  0.0000000E+00
   331.5000    	           0	  0.0000000E+00
   334.5000    	           0	  0.0000000E+00
   337.5000    	           0	  0.0000000E+00
   340.5000    	           0	  0.0000000E+00
   343.5000    	           0	  0.0000000E+00
   346.5000    	           0	  0.0000000E+00
   349.5000    	           0	  0.0000000E+00
   352.5000    	           0	  0.0000000E+00
   355.5000    	           0	  0.0000000E+00
   358.5000    	           0	  0.0000000E+00
 angle:	pba2:
   1.500000    	           0	  0.0000000E+00
   4.500000    	           0	  0.0000000E+00
   7.500000    	           0	  0.0000000E+00
   10.50000    	           0	  0.0000000E+00
   13.50000    	           0	  0.0000000E+00
   16.50000    	           0	  0.0000000E+00
   19.50000    	           0	  0.0000000E+00
   22.50000    	           0	  0.0000000E+00
   25.50000    	           0	  0.0000000E+00
   28.50000    	           0	  0.0000000E+00
   31.50000    	           0	  0.0000000E+00
   34.50000    	           0	  0.0000000E+00
   37.50000    	           0	  0.0000000E+00
   40.50000    	           0	  0.0000000E+00
   43.50000    	           0	  0.0000000E+00
   46.50000    	           0	  0.0000000E+00
   49.50000    	           0	  0.0000000E+00
   52.50000    	           0	  0.0000000E+00
   55.50000    	           0	  0.0000000E+00
   58.50000    	           0	  0.0000000E+00
   61.50000    	           0	  0.0000000E+00
   64.50000    	           0	  0.0000000E+00
   67.50000    	           0	  0.0000000E+00
   70.50000    	           0	  0.0000000E+00
   73.50000    	           2	  7.5471699E-03
   76.50000    	           1	  3.7735850E-03
   79.50000    	           1	  3.7735850E-03
   82.50000    	           1	  3.7735850E-03
   85.50000    	           3	  1.1320755E-02
   88.50000    	           3	  1.1320755E-02
   91.50000    	           6	  2.2641510E-02
   94.50000    	          11	  4.1509435E-02
   97.50000    	          12	  4.5283020E-02
   100.5000    	           8	  3.0188680E-02
   103.5000    	          11	  4.1509435E-02
   106.5000    	           7	  2.6415095E-02
   109.5000    	           6	  2.2641510E-02
   112.5000    	          13	  4.9056605E-02
   115.5000    	           9	  3.3962265E-02
   118.5000    	           7	  2.6415095E-02
   121.5000    	          12	  4.5283020E-02
   124.5000    	          12	  4.5283020E-02
   127.5000    	           9	  3.3962265E-02
   130.5000    	          11	  4.1509435E-02
   133.5000    	          13	  4.9056605E-02
   136.5000    	          13	  4.9056605E-02
   139.5000    	          10	  3.7735850E-02
   142.5000    	           9	  3.3962265E-02
   145.5000    	          12	  4.5283020E-02
   148.5000    	          10	  3.7735850E-02
   151.5000    	           6	  2.2641510E-02
   154.5000    	          14	  5.2830189E-02
   157.5000    	           7	  2.6415095E-02
   160.5000    	           4	  1.5094340E-02
   163.5000    	           7	  2.6415095E-02
   166.5000    	           7	  2.6415095E-02
   169.5000    	           3	  1.1320755E-02
   172.5000    	           3	  1.1320755E-02
   175.5000    	           1	  3.7735850E-03
   178.5000    	           1	  3.7735850E-03
   181.5000    	           0	  0.0000000E+00
   184.5000    	           0	  0.0000000E+00
   187.5000    	           0	  0.0000000E+00
   190.5000    	           0	  0.0000000E+00
   193.5000    	           0	  0.0000000E+00
   196.5000    	           0	  0.0000000E+00
   199.5000    	           0	  0.0000000E+00
   202.5000    	           0	  0.0000000E+00
   205.5000    	           0	  0.0000000E+00
   208.5000    	           0	  0.0000000E+00
   211.5000    	           0	  0.0000000E+00
   214.5000    	           0	  0.0000000E+00
   217.5000    	           0	  0.0000000E+00
   220.5000    	           0	  0.0000000E+00
   223.5000    	           0	  0.0000000E+00
   226.5000    	           0	  0.0000000E+00
   229.5000    	           0	  0.0000000E+00
   232.5000    	           0	  0.0000000E+00
   235.5000    	           0	  0.0000000E+00
   238.5000    	           0	  0.0000000E+00
   241.5000    	           0	  0.0000000E+00
   244.5000    	           0	  0.0000000E+00
   247.5000    	           0	  0.0000000E+00
   250.5000    	           0	  0.0000000E+00
   253.5000    	           0	  0.0000000E+00
   256.5000    	           0	  0.0000000E+00
   259.5000    	           0	  0.0000000E+00
   262.5000    	           0	  0.0000000E+00
   265.5000    	           0	  0.0000000E+00
   268.5000    	           0	  0.0000000E+00
   271.5000    	           0	  0.0000000E+00
   274.5000    	           0	  0.0000000E+00
   277.5000    	           0	  0.0000000E+00
   280.5000    	           0	  0.0000000E+00
   283.5000    	           0	  0.0000000E+00
   286.5000    	           0	  0.0000000E+00
   289.5000    	           0	  0.0000000E+00
   292.5000    	           0	  0.0000000E+00
   295.5000    	           0	  0.0000000E+00
   298.5000    	           0	  0.0000000E+00
   301.5000    	           0	  0.0000000E+00
   304.5000    	           0	  0.0000000E+00
   307.5000    	           0	  0.0000000E+00
   310.5000    	           0	  0.0000000E+00
   313.5000    	           0	  0.0000000E+00
   316.5000    	           0	  0.0000000E+00
   319.5000    	           0	  0.0000000E+00
   322.5000    	           0	  0.0000000E+00
   325.5000    	           0	  0.0000000E+00
   328.5000    	           0	  0.0000000E+00
   331.5000    	           0	  0.0000000E+00
   334.5000    	           0	  0.0000000E+00
   337.5000    	           0	  0.0000000E+00
   340.5000    	           0	  0.0000000E+00
   343.5000    	           0	  0.0000000E+00
   346.5000    	           0	  0.0000000E+00
   349.5000    	           0	  0.0000000E+00
   352.5000    	           0	  0.0000000E+00
   355.5000    	           0	  0.0000000E+00
   358.5000    	           0	  0.0000000E+00
 angle:	pba3:
   1.500000    	           0	  0.0000000E+00
   4.500000    	           0	  0.0000000E+00
   7.500000    	           0	  0.0000000E+00
   10.50000    	           0	  0.0000000E+00
   13.50000    	           0	  0.0000000E+00
   16.50000    	           0	  0.0000000E+00
   19.50000    	           0	  0.0000000E+00
   22.50000    	           0	  0.0000000E+00
   25.50000    	           0	  0.0000000E+00
   28.50000    	           0	  0.0000000E+00
   31.50000    	           0	  0.0000000E+00
   34.50000    	           0	  0.0000000E+00
   37.50000    	           0	  0.0000000E+00
   40.50000    	           0	  0.0000000E+00
   43.50000    	           0	  0.0000000E+00
   46.50000    	           0	  0.0000000E+00
   49.50000    	           0	  0.0000000E+00
   52.50000    	           0	  0.0000000E+00
   55.50000    	           1	  2.1505376E-04
   58.50000    	           1	  2.1505376E-04
   61.50000    	           3	  6.4516132E-04
   64.50000    	           7	  1.5053763E-03
   67.50000    	           8	  1.7204301E-03
   70.50000    	          23	  4.9462365E-03
   73.50000    	          34	  7.3118280E-03
   76.50000    	          77	  1.6559139E-02
   79.50000    	         101	  2.1720430E-02
   82.50000    	         136	  2.9247312E-02
   85.50000    	         148	  3.1827956E-02
   88.50000    	         165	  3.5483871E-02
   91.50000    	         206	  4.4301074E-02
   94.50000    	         211	  4.5376346E-02
   97.50000    	         199	  4.2795699E-02
   100.5000    	         232	  4.9892474E-02
   103.5000    	         216	  4.6451613E-02
   106.5000    	         238	  5.1182795E-02
   109.5000    	         209	  4.4946238E-02
   112.5000    	         211	  4.5376346E-02
   115.5000    	         216	  4.6451613E-02
   118.5000    	         204	  4.3870967E-02
   121.5000    	         203	  4.3655913E-02
   124.5000    	         191	  4.1075271E-02
   127.5000    	         172	  3.6989246E-02
   130.5000    	         181	  3.8924731E-02
   133.5000    	         174	  3.7419356E-02
   136.5000    	         142	  3.0537635E-02
   139.5000    	         126	  2.7096774E-02
   142.5000    	         112	  2.4086021E-02
   145.5000    	          95	  2.0430107E-02
   148.5000    	          95	  2.0430107E-02
   151.5000    	          62	  1.3333334E-02
   154.5000    	          59	  1.2688172E-02
   157.5000    	          50	  1.0752688E-02
   160.5000    	          35	  7.5268815E-03
   163.5000    	          32	  6.8817204E-03
   166.5000    	          29	  6.2365592E-03
   169.5000    	          22	  4.7311829E-03
   172.5000    	          13	  2.7956988E-03
   175.5000    	           8	  1.7204301E-03
   178.5000    	           3	  6.4516132E-04
   181.5000    	           0	  0.0000000E+00
   184.5000    	           0	  0.0000000E+00
   187.5000    	           0	  0.0000000E+00
   190.5000    	           0	  0.0000000E+00
   193.5000    	           0	  0.0000000E+00
   196.5000    	           0	  0.0000000E+00
   199.5000    	           0	  0.0000000E+00
   202.5000    	           0	  0.0000000E+00
   205.5000    	           0	  0.0000000E+00
   208.5000    	           0	  0.0000000E+00
   211.5000    	           0	  0.0000000E+00
   214.5000    	           0	  0.0000000E+00
   217.5000    	           0	  0.0000000E+00
   220.5000    	           0	  0.0000000E+00
   223.5000    	           0	  0.0000000E+00
   226.5000    	           0	  0.0000000E+00
   229.5000    	           0	  0.0000000E+00
   232.5000    	           0	  0.0000000E+00
   235.5000    	           0	  0.0000000E+00
   238.5000    	           0	  0.0000000E+00
   241.5000    	           0	  0.0000000E+00
   244.5000    	           0	  0.0000000E+00
   247.5000    	           0	  0.0000000E+00
   250.5000    	           0	  0.0000000E+00
   253.5000    	           0	  0.0000000E+00
   256.5000    	           0	  0.0000000E+00
   259.5000    	           0	  0.0000000E+00
   262.5000    	           0	  0.0000000E+00
   265.5000    	           0	  0.0000000E+00
   268.5000    	           0	  0.0000000E+00
   271.5000    	           0	  0.0000000E+00
   274.5000    	           0	  0.0000000E+00
   277.5000    	           0	  0.0000000E+00
   280.5000    	           0	  0.0000000E+00
   283.5000    	           0	  0.0000000E+00
   286.5000    	           0	  0.0000000E+00
   289.5000    	           0	  0.0000000E+00
   292.5000    	           0	  0.0000000E+00
   295.5000    	           0	  0.0000000E+00
   298.5000    	           0	  0.0000000E+00
   301.5000    	           0	  0.0000000E+00
   304.5000    	           0	  0.0000000E+00
   307.5000    	           0	  0.0000000E+00
   310.5000    	           0	  0.0000000E+00
   313.5000    	           0	  0.0000000E+00
   316.5000    	           0	  0.0000000E+00
   319.5000    	           0	  0.0000000E+00
   322.5000    	           0	  0.0000000E+00
   325.5000    	           0	  0.0000000E+00
   328.5000    	           0	  0.0000000E+00
   331.5000    	           0	  0.0000000E+00
   334.5000    	           0	  0.0000000E+00
   337.5000    	           0	  0.0000000E+00
   340.5000    	           0	  0.0000000E+00
   343.5000    	           0	  0.0000000E+00
   346.5000    	           0	  0.0000000E+00
   349.5000    	           0	  0.0000000E+00
   352.5000    	           0	  0.0000000E+00
   355.5000    	           0	  0.0000000E+00
   358.5000    	           0	  0.0000000E+00
 angle:	pba4:
   1.500000    	           0	  0.0000000E+00
   4.500000    	           0	  0.0000000E+00
   7.500000    	           0	  0.0000000E+00
   10.50000    	           0	  0.0000000E+00
   13.50000    	           0	  0.0000000E+00
   16.50000    	           0	  0.0000000E+00
   19.50000    	           0	  0.0000000E+00
   22.50000    	           0	  0.0000000E+00
   25.50000    	           0	  0.0000000E+00
   28.50000    	           0	  0.0000000E+00
   31.50000    	           0	  0.0000000E+00
   34.50000    	           0	  0.0000000E+00
   37.50000    	           0	  0.0000000E+00
   40.50000    	           0	  0.0000000E+00
   43.50000    	           0	  0.0000000E+00
   46.50000    	           0	  0.0000000E+00
   49.50000    	           0	  0.0000000E+00
   52.50000    	           1	  1.5124016E-04
   55.50000    	           1	  1.5124016E-04
   58.50000    	           1	  1.5124016E-04
   61.50000    	           7	  1.0586812E-03
   64.50000    	          19	  2.8735632E-03
   67.50000    	          42	  6.3520870E-03
   70.50000    	          74	  1.1191772E-02
   73.50000    	         119	  1.7997580E-02
   76.50000    	         180	  2.7223231E-02
   79.50000    	         207	  3.1306714E-02
   82.50000    	         259	  3.9171204E-02
   85.50000    	         331	  5.0060496E-02
   88.50000    	         364	  5.5051420E-02
   91.50000    	         374	  5.6563824E-02
   94.50000    	         378	  5.7168785E-02
   97.50000    	         385	  5.8227465E-02
   100.5000    	         343	  5.1875379E-02
   103.5000    	         325	  4.9153056E-02
   106.5000    	         285	  4.3103449E-02
   109.5000    	         299	  4.5220811E-02
   112.5000    	         236	  3.5692681E-02
   115.5000    	         277	  4.1893527E-02
   118.5000    	         197	  2.9794313E-02
   121.5000    	         219	  3.3121597E-02
   124.5000    	         213	  3.2214157E-02
   127.5000    	         210	  3.1760436E-02
   130.5000    	         183	  2.7676951E-02
   133.5000    	         138	  2.0871144E-02
   136.5000    	         117	  1.7695099E-02
   139.5000    	         125	  1.8905021E-02
   142.5000    	         134	  2.0266183E-02
   145.5000    	         103	  1.5577737E-02
   148.5000    	          93	  1.4065336E-02
   151.5000    	          58	  8.7719299E-03
   154.5000    	          71	  1.0738052E-02
   157.5000    	          62	  9.3768910E-03
   160.5000    	          44	  6.6545676E-03
   163.5000    	          38	  5.7471264E-03
   166.5000    	          34	  5.1421658E-03
   169.5000    	          26	  3.9322446E-03
   172.5000    	          23	  3.4785238E-03
   175.5000    	          13	  1.9661223E-03
   178.5000    	           4	  6.0496066E-04
   181.5000    	           0	  0.0000000E+00
   184.5000    	           0	  0.0000000E+00
   187.5000    	           0	  0.0000000E+00
   190.5000    	           0	  0.0000000E+00
   193.5000    	           0	  0.0000000E+00
   196.5000    	           0	  0.0000000E+00
   199.5000    	           0	  0.0000000E+00
   202.5000    	           0	  0.0000000E+00
   205.5000    	           0	  0.0000000E+00
   208.5000    	           0	  0.0000000E+00
   211.5000    	           0	  0.0000000E+00
   214.5000    	           0	  0.0000000E+00
   217.5000    	           0	  0.0000000E+00
   220.5000    	           0	  0.0000000E+00
   223.5000    	           0	  0.0000000E+00
   226.5000    	           0	  0.0000000E+00
   229.5000    	           0	  0.0000000E+00
   232.5000    	           0	  0.0000000E+00
   235.5000    	           0	  0.0000000E+00
   238.5000    	           0	  0.0000000E+00
   241.5000    	           0	  0.0000000E+00
   244.5000    	           0	  0.0000000E+00
   247.5000    	           0	  0.0000000E+00
